Temperature,Para Percentage
10,99.9999
20,99.821
20.39,99.789
30,97.021
33.1,95.034
40,88.727
50,77.054
60,65.569
70,55.991
80,48.537
90,42.882
100,38.62
120,32.959
150,28.603
200,25.974
250,25.264
298.16,25.075
300,25.072
350,25.019
400,25.005
500,25
